"Freq [GHz]","mag(St(3,2)) []"
1,0.866025577176544
1.00100025006252,0.866025578581443
1.00200050012503,0.866025579979732
1.00300075018755,0.866025581371332
1.00400100025006,0.866025582756166
1.00500125031258,0.86602558413415
1.00600150037509,0.866025585505205
1.00700175043761,0.866025586869246
1.00800200050013,0.866025588226189
1.00900225056264,0.866025589575949
1.01000250062516,0.866025590918438
1.01100275068767,0.866025592253569
1.01200300075019,0.866025593581253
1.0130032508127,0.866025594901398
1.01400350087522,0.866025596213914
1.01500375093773,0.866025597518709
1.01600400100025,0.866025598815687
1.01700425106277,0.866025600104754
1.01800450112528,0.866025601385814
1.0190047511878,0.866025602658768
1.02000500125031,0.86602560392352
1.02100525131283,0.866025605179968
1.02200550137534,0.866025606428012
1.02300575143786,0.866025607667551
1.02400600150038,0.866025608898479
1.02500625156289,0.866025610120694
1.02600650162541,0.866025611334091
1.02700675168792,0.866025612538563
1.02800700175044,0.866025613734001
1.02900725181295,0.866025614920297
1.03000750187547,0.866025616097342
1.03100775193798,0.866025617265024
1.0320080020005,0.866025618423231
1.03300825206302,0.866025619571851
1.03400850212553,0.866025620710769
1.03500875218805,0.866025621839869
1.03600900225056,0.866025622959036
1.03700925231308,0.866025624068152
1.03800950237559,0.866025625167098
1.03900975243811,0.866025626255756
1.04001000250063,0.866025627334003
1.04101025256314,0.86602562840172
1.04201050262566,0.866025629458782
1.04301075268817,0.866025630505068
1.04401100275069,0.866025631540451
1.0450112528132,0.866025632564807
1.04601150287572,0.866025633578009
1.04701175293823,0.866025634579928
1.04801200300075,0.866025635570437
1.04901225306327,0.866025636549406
1.05001250312578,0.866025637516704
1.0510127531883,0.8660256384722
1.05201300325081,0.866025639415761
1.05301325331333,0.866025640347253
1.05401350337584,0.866025641266543
1.05501375343836,0.866025642173494
1.05601400350088,0.866025643067973
1.05701425356339,0.86602564394984
1.05801450362591,0.866025644818956
1.05901475368842,0.866025645675185
1.06001500375094,0.866025646518386
1.06101525381345,0.866025647348417
1.06201550387597,0.866025648165138
1.06301575393848,0.866025648968406
1.064016004001,0.866025649758077
1.06501625406352,0.866025650534008
1.06601650412603,0.866025651296053
1.06701675418855,0.866025652044066
1.06801700425106,0.866025652777902
1.06901725431358,0.866025653497411
1.07001750437609,0.866025654202447
1.07101775443861,0.866025654892859
1.07201800450113,0.866025655568498
1.07301825456364,0.866025656229214
1.07401850462616,0.866025656874853
1.07501875468867,0.866025657505266
1.07601900475119,0.866025658120298
1.0770192548137,0.866025658719796
1.07801950487622,0.866025659303605
1.07901975493873,0.86602565987157
1.08002000500125,0.866025660423536
1.08102025506377,0.866025660959346
1.08202050512628,0.866025661478842
1.0830207551888,0.866025661981866
1.08402100525131,0.866025662468261
1.08502125531383,0.866025662937866
1.08602150537634,0.866025663390521
1.08702175543886,0.866025663826067
1.08802200550138,0.866025664244341
1.08902225556389,0.866025664645182
1.09002250562641,0.866025665028427
1.09102275568892,0.866025665393914
1.09202300575144,0.866025665741478
1.09302325581395,0.866025666070956
1.09402350587647,0.866025666382181
1.09502375593898,0.866025666674991
1.0960240060015,0.866025666949217
1.09702425606402,0.866025667204694
1.09802450612653,0.866025667441254
1.09902475618905,0.866025667658731
1.10002500625156,0.866025667856955
1.10102525631408,0.86602566803576
1.10202550637659,0.866025668194975
1.10302575643911,0.86602566833443
1.10402600650163,0.866025668453957
1.10502625656414,0.866025668553384
1.10602650662666,0.866025668632541
1.10702675668917,0.866025668691257
1.10802700675169,0.866025668729359
1.1090272568142,0.866025668746676
1.11002750687672,0.866025668743035
1.11102775693923,0.866025668718263
1.11202800700175,0.866025668672188
1.11302825706427,0.866025668604634
1.11402850712678,0.86602566851543
1.1150287571893,0.866025668404399
1.11602900725181,0.866025668271368
1.11702925731433,0.866025668116161
1.11802950737684,0.866025667938603
1.11902975743936,0.866025667738519
1.12003000750188,0.866025667515734
1.12103025756439,0.86602566727007
1.12203050762691,0.866025667001351
1.12303075768942,0.866025666709402
1.12403100775194,0.866025666394045
1.12503125781445,0.866025666055104
1.12603150787697,0.8660256656924
1.12703175793948,0.866025665305756
1.128032008002,0.866025664894996
1.12903225806452,0.866025664459942
1.13003250812703,0.866025664000414
1.13103275818955,0.866025663516236
1.13203300825206,0.866025663007229
1.13303325831458,0.866025662473216
1.13403350837709,0.866025661914017
1.13503375843961,0.866025661329454
1.13603400850213,0.866025660719349
1.13703425856464,0.866025660083523
1.13803450862716,0.866025659421797
1.13903475868967,0.866025658733994
1.14003500875219,0.866025658019933
1.1410352588147,0.866025657279436
1.14203550887722,0.866025656512325
1.14303575893973,0.866025655718421
1.14403600900225,0.866025654897545
1.14503625906477,0.866025654049519
1.14603650912728,0.866025653174164
1.1470367591898,0.866025652271301
1.14803700925231,0.866025651340753
1.14903725931483,0.866025650382341
1.15003750937734,0.866025649395886
1.15103775943986,0.866025648381212
1.15203800950238,0.866025647338138
1.15303825956489,0.866025646266489
1.15403850962741,0.866025645166086
1.15503875968992,0.866025644036751
1.15603900975244,0.866025642878309
1.15703925981495,0.866025641690581
1.15803950987747,0.86602564047339
1.15903975993999,0.866025639226561
1.1600400100025,0.866025637949917
1.16104026006502,0.86602563664328
1.16204051012753,0.866025635306478
1.16304076019005,0.866025633939332
1.16404101025256,0.866025632541669
1.16504126031508,0.866025631113313
1.16604151037759,0.866025629654091
1.16704176044011,0.866025628163826
1.16804201050263,0.866025626642346
1.16904226056514,0.866025625089476
1.17004251062766,0.866025623505046
1.17104276069017,0.86602562188888
1.17204301075269,0.866025620240809
1.1730432608152,0.866025618560657
1.17404351087772,0.866025616848256
1.17504376094024,0.866025615103434
1.17604401100275,0.866025613326021
1.17704426106527,0.866025611515846
1.17804451112778,0.86602560967274
1.1790447611903,0.866025607796534
1.18004501125281,0.866025605887059
1.18104526131533,0.866025603944149
1.18204551137784,0.866025601967634
1.18304576144036,0.86602559995735
1.18404601150288,0.866025597913129
1.18504626156539,0.866025595834807
1.18604651162791,0.866025593722217
1.18704676169042,0.866025591575195
1.18804701175294,0.86602558939358
1.18904726181545,0.866025587177205
1.19004751187797,0.866025584925912
1.19104776194048,0.866025582639536
1.192048012003,0.866025580317917
1.19304826206552,0.866025577960895
1.19404851212803,0.866025575568311
1.19504876219055,0.866025573140006
1.19604901225306,0.866025570675822
1.19704926231558,0.866025568175601
1.19804951237809,0.866025565639188
1.19904976244061,0.866025563066426
1.20005001250313,0.866025560457162
1.20105026256564,0.866025557811241
1.20205051262816,0.86602555512851
1.20305076269067,0.866025552408816
1.20405101275319,0.866025549652009
1.2050512628157,0.866025546857938
1.20605151287822,0.866025544026453
1.20705176294074,0.866025541157408
1.20805201300325,0.866025538250651
1.20905226306577,0.866025535306039
1.21005251312828,0.866025532323425
1.2110527631908,0.866025529302664
1.21205301325331,0.866025526243612
1.21305326331583,0.866025523146127
1.21405351337834,0.866025520010068
1.21505376344086,0.866025516835292
1.21605401350338,0.866025513621662
1.21705426356589,0.866025510369037
1.21805451362841,0.866025507077282
1.21905476369092,0.866025503746259
1.22005501375344,0.866025500375833
1.22105526381595,0.866025496965871
1.22205551387847,0.866025493516238
1.22305576394099,0.866025490026805
1.2240560140035,0.866025486497438
1.22505626406602,0.866025482928011
1.22605651412853,0.866025479318394
1.22705676419105,0.866025475668459
1.22805701425356,0.866025471978083
1.22905726431608,0.866025468247139
1.23005751437859,0.866025464475504
1.23105776444111,0.866025460663058
1.23205801450363,0.866025456809678
1.23305826456614,0.866025452915246
1.23405851462866,0.866025448979644
1.23505876469117,0.866025445002754
1.23605901475369,0.866025440984462
1.2370592648162,0.866025436924653
1.23805951487872,0.866025432823214
1.23905976494124,0.866025428680035
1.24006001500375,0.866025424495005
1.24106026506627,0.866025420268017
1.24206051512878,0.866025415998963
1.2430607651913,0.866025411687737
1.24406101525381,0.866025407334236
1.24506126531633,0.866025402938357
1.24606151537884,0.866025398499998
1.24706176544136,0.866025394019061
1.24806201550388,0.866025389495446
1.24906226556639,0.866025384929058
1.25006251562891,0.866025380319802
1.25106276569142,0.866025375667584
1.25206301575394,0.866025370972311
1.25306326581645,0.866025366233895
1.25406351587897,0.866025361452245
1.25506376594149,0.866025356627276
1.256064016004,0.866025351758901
1.25706426606652,0.866025346847037
1.25806451612903,0.866025341891602
1.25906476619155,0.866025336892515
1.26006501625406,0.866025331849697
1.26106526631658,0.866025326763072
1.26206551637909,0.866025321632563
1.26306576644161,0.866025316458098
1.26406601650413,0.866025311239604
1.26506626656664,0.866025305977011
1.26606651662916,0.866025300670251
1.26706676669167,0.866025295319258
1.26806701675419,0.866025289923965
1.2690672668167,0.866025284484312
1.27006751687922,0.866025279000235
1.27106776694174,0.866025273471676
1.27206801700425,0.866025267898577
1.27306826706677,0.866025262280883
1.27406851712928,0.86602525661854
1.2750687671918,0.866025250911495
1.27606901725431,0.8660252451597
1.27706926731683,0.866025239363106
1.27806951737935,0.866025233521666
1.27906976744186,0.866025227635336
1.28007001750438,0.866025221704075
1.28107026756689,0.866025215727842
1.28207051762941,0.866025209706597
1.28307076769192,0.866025203640307
1.28407101775444,0.866025197528935
1.28507126781695,0.866025191372449
1.28607151787947,0.86602518517082
1.28707176794199,0.866025178924018
1.2880720180045,0.866025172632018
1.28907226806702,0.866025166294795
1.29007251812953,0.866025159912327
1.29107276819205,0.866025153484595
1.29207301825456,0.866025147011579
1.29307326831708,0.866025140493265
1.29407351837959,0.866025133929639
1.29507376844211,0.866025127320689
1.29607401850463,0.866025120666406
1.29707426856714,0.866025113966782
1.29807451862966,0.866025107221813
1.29907476869217,0.866025100431495
1.30007501875469,0.866025093595827
1.3010752688172,0.866025086714812
1.30207551887972,0.866025079788452
1.30307576894224,0.866025072816755
1.30407601900475,0.866025065799727
1.30507626906727,0.866025058737379
1.30607651912978,0.866025051629724
1.3070767691923,0.866025044476777
1.30807701925481,0.866025037278555
1.30907726931733,0.866025030035077
1.31007751937984,0.866025022746365
1.31107776944236,0.866025015412444
1.31207801950488,0.866025008033339
1.31307826956739,0.866025000609079
1.31407851962991,0.866024993139696
1.31507876969242,0.866024985625222
1.31607901975494,0.866024978065695
1.31707926981745,0.866024970461151
1.31807951987997,0.866024962811631
1.31907976994249,0.866024955117178
1.320080020005,0.866024947377838
1.32108027006752,0.866024939593658
1.32208052013003,0.866024931764689
1.32308077019255,0.866024923890983
1.32408102025506,0.866024915972595
1.32508127031758,0.866024908009582
1.3260815203801,0.866024900002005
1.32708177044261,0.866024891949925
1.32808202050513,0.866024883853409
1.32908227056764,0.866024875712522
1.33008252063016,0.866024867527337
1.33108277069267,0.866024859297922
1.33208302075519,0.866024851024355
1.3330832708177,0.866024842706713
1.33408352088022,0.866024834345075
1.33508377094274,0.866024825939525
1.33608402100525,0.866024817490146
1.33708427106777,0.866024808997027
1.33808452113028,0.866024800460257
1.3390847711928,0.866024791879931
1.34008502125531,0.866024783256141
1.34108527131783,0.866024774588988
1.34208552138035,0.86602476587857
1.34308577144286,0.866024757124991
1.34408602150538,0.866024748328357
1.34508627156789,0.866024739488776
1.34608652163041,0.866024730606359
1.34708677169292,0.866024721681219
1.34808702175544,0.866024712713473
1.34908727181795,0.866024703703239
1.35008752188047,0.866024694650639
1.35108777194299,0.866024685555797
1.3520880220055,0.86602467641884
1.35308827206802,0.866024667239897
1.35408852213053,0.866024658019101
1.35508877219305,0.866024648756586
1.35608902225556,0.866024639452489
1.35708927231808,0.866024630106952
1.3580895223806,0.866024620720116
1.35908977244311,0.866024611292127
1.36009002250563,0.866024601823135
1.36109027256814,0.866024592313289
1.36209052263066,0.866024582762743
1.36309077269317,0.866024573171655
1.36409102275569,0.866024563540183
1.3650912728182,0.86602455386849
1.36609152288072,0.866024544156739
1.36709177294324,0.866024534405099
1.36809202300575,0.866024524613739
1.36909227306827,0.866024514782834
1.37009252313078,0.866024504912558
1.3710927731933,0.86602449500309
1.37209302325581,0.866024485054611
1.37309327331833,0.866024475067305
1.37409352338085,0.86602446504136
1.37509377344336,0.866024454976964
1.37609402350588,0.866024444874311
1.37709427356839,0.866024434733595
1.37809452363091,0.866024424555015
1.37909477369342,0.866024414338771
1.38009502375594,0.866024404085066
1.38109527381845,0.866024393794108
1.38209552388097,0.866024383466106
1.38309577394349,0.866024373101271
1.384096024006,0.866024362699819
1.38509627406852,0.866024352261967
1.38609652413103,0.866024341787935
1.38709677419355,0.866024331277947
1.38809702425606,0.866024320732229
1.38909727431858,0.86602431015101
1.3900975243811,0.866024299534522
1.39109777444361,0.866024288882999
1.39209802450613,0.866024278196679
1.39309827456864,0.866024267475802
1.39409852463116,0.866024256720611
1.39509877469367,0.866024245931352
1.39609902475619,0.866024235108274
1.3970992748187,0.866024224251629
1.39809952488122,0.86602421336167
1.39909977494374,0.866024202438656
1.40010002500625,0.866024191482846
1.40110027506877,0.866024180494504
1.40210052513128,0.866024169473894
1.4031007751938,0.866024158421287
1.40410102525631,0.866024147336952
1.40510127531883,0.866024136221165
1.40610152538135,0.866024125074203
1.40710177544386,0.866024113896346
1.40810202550638,0.866024102687876
1.40910227556889,0.86602409144908
1.41010252563141,0.866024080180245
1.41110277569392,0.866024068881664
1.41210302575644,0.866024057553629
1.41310327581895,0.866024046196439
1.41410352588147,0.866024034810394
1.41510377594399,0.866024023395795
1.4161040260065,0.866024011952948
1.41710427606902,0.866024000482163
1.41810452613153,0.866023988983748
1.41910477619405,0.86602397745802
1.42010502625656,0.866023965905295
1.42110527631908,0.866023954325891
1.4221055263816,0.866023942720133
1.42310577644411,0.866023931088344
1.42410602650663,0.866023919430852
1.42510627656914,0.86602390774799
1.42610652663166,0.866023896040091
1.42710677669417,0.86602388430749
1.42810702675669,0.866023872550527
1.4291072768192,0.866023860769544
1.43010752688172,0.866023848964887
1.43110777694424,0.866023837136901
1.43210802700675,0.866023825285939
1.43310827706927,0.866023813412353
1.43410852713178,0.866023801516499
1.4351087771943,0.866023789598736
1.43610902725681,0.866023777659425
1.43710927731933,0.86602376569893
1.43810952738185,0.866023753717618
1.43910977744436,0.86602374171586
1.44011002750688,0.866023729694027
1.44111027756939,0.866023717652495
1.44211052763191,0.866023705591641
1.44311077769442,0.866023693511846
1.44411102775694,0.866023681413494
1.44511127781945,0.866023669296971
1.44611152788197,0.866023657162665
1.44711177794449,0.866023645010967
1.448112028007,0.866023632842273
1.44911227806952,0.866023620656978
1.45011252813203,0.866023608455482
1.45111277819455,0.866023596238188
1.45211302825706,0.8660235840055
1.45311327831958,0.866023571757826
1.4541135283821,0.866023559495576
1.45511377844461,0.866023547219162
1.45611402850713,0.866023534929
1.45711427856964,0.866023522625508
1.45811452863216,0.866023510309107
1.45911477869467,0.86602349798022
1.46011502875719,0.866023485639272
1.46111527881971,0.866023473286692
1.46211552888222,0.866023460922912
1.46311577894474,0.866023448548364
1.46411602900725,0.866023436163485
1.46511627906977,0.866023423768714
1.46611652913228,0.866023411364492
1.4671167791948,0.866023398951261
1.46811702925731,0.86602338652947
1.46911727931983,0.866023374099566
1.47011752938235,0.866023361662001
1.47111777944486,0.866023349217228
1.47211802950738,0.866023336765705
1.47311827956989,0.866023324307889
1.47411852963241,0.866023311844241
1.47511877969492,0.866023299375226
1.47611902975744,0.86602328690131
1.47711927981995,0.86602327442296
1.47811952988247,0.866023261940648
1.47911977994499,0.866023249454847
1.4801200300075,0.866023236966033
1.48112028007002,0.866023224474684
1.48212053013253,0.86602321198128
1.48312078019505,0.866023199486304
1.48412103025756,0.866023186990242
1.48512128032008,0.86602317449358
1.4861215303826,0.866023161996808
1.48712178044511,0.866023149500419
1.48812203050763,0.866023137004907
1.48912228057014,0.866023124510768
1.49012253063266,0.866023112018501
1.49112278069517,0.866023099528608
1.49212303075769,0.866023087041592
1.49312328082021,0.866023074557957
1.49412353088272,0.866023062078213
1.49512378094524,0.86602304960287
1.49612403100775,0.866023037132438
1.49712428107027,0.866023024667433
1.49812453113278,0.866023012208371
1.4991247811953,0.86602299975577
1.50012503125781,0.866022987310151
1.50112528132033,0.866022974872038
1.50212553138285,0.866022962441955
1.50312578144536,0.866022950020428
1.50412603150788,0.866022937607987
1.50512628157039,0.866022925205163
1.50612653163291,0.86602291281249
1.50712678169542,0.8660229004305
1.50812703175794,0.866022888059733
1.50912728182046,0.866022875700728
1.51012753188297,0.866022863354024
1.51112778194549,0.866022851020165
1.512128032008,0.866022838699695
1.51312828207052,0.866022826393162
1.51412853213303,0.866022814101114
1.51512878219555,0.866022801824102
1.51612903225806,0.866022789562677
1.51712928232058,0.866022777317395
1.5181295323831,0.86602276508881
1.51912978244561,0.866022752877481
1.52013003250813,0.866022740683967
1.52113028257064,0.86602272850883
1.52213053263316,0.866022716352632
1.52313078269567,0.866022704215938
1.52413103275819,0.866022692099315
1.52513128282071,0.866022680003331
1.52613153288322,0.866022667928555
1.52713178294574,0.86602265587556
1.52813203300825,0.866022643844917
1.52913228307077,0.866022631837202
1.53013253313328,0.866022619852991
1.5311327831958,0.866022607892862
1.53213303325831,0.866022595957393
1.53313328332083,0.866022584047167
1.53413353338335,0.866022572162765
1.53513378344586,0.86602256030477
1.53613403350838,0.866022548473769
1.53713428357089,0.866022536670348
1.53813453363341,0.866022524895095
1.53913478369592,0.8660225131486
1.54013503375844,0.866022501431454
1.54113528382096,0.866022489744248
1.54213553388347,0.866022478087576
1.54313578394599,0.866022466462034
1.5441360340085,0.866022454868217
1.54513628407102,0.866022443306723
1.54613653413353,0.86602243177815
1.54713678419605,0.866022420283099
1.54813703425856,0.86602240882217
1.54913728432108,0.866022397395965
1.5501375343836,0.866022386005089
1.55113778444611,0.866022374650145
1.55213803450863,0.866022363331739
1.55313828457114,0.866022352050478
1.55413853463366,0.866022340806969
1.55513878469617,0.866022329601822
1.55613903475869,0.866022318435645
1.55713928482121,0.86602230730905
1.55813953488372,0.866022296222648
1.55913978494624,0.866022285177053
1.56014003500875,0.866022274172877
1.56114028507127,0.866022263210735
1.56214053513378,0.866022252291242
1.5631407851963,0.866022241415014
1.56414103525881,0.866022230582669
1.56514128532133,0.866022219794823
1.56614153538385,0.866022209052096
1.56714178544636,0.866022198355106
1.56814203550888,0.866022187704473
1.56914228557139,0.866022177100818
1.57014253563391,0.866022166544762
1.57114278569642,0.866022156036927
1.57214303575894,0.866022145577935
1.57314328582146,0.866022135168409
