F [GHz],dB(S11)
4.000000000000002,-2.638696067604647
4.005000000000002,-2.642390336221520
4.010000000000002,-2.646118036506642
4.015000000000002,-2.649879380091319
4.020000000000002,-2.653674580817180
4.025000000000002,-2.657503854761462
4.030000000000002,-2.661367420262637
4.035000000000002,-2.665265497946352
4.040000000000002,-2.669198310751797
4.045000000000002,-2.673166083958340
4.050000000000002,-2.677169045212597
4.055000000000002,-2.681207424555862
4.060000000000002,-2.685281454451866
4.065000000000002,-2.689391369814991
4.070000000000002,-2.693537408038820
4.075000000000002,-2.697719809025098
4.080000000000002,-2.701938815213102
4.085000000000002,-2.706194671609396
4.090000000000002,-2.710487625818043
4.095000000000002,-2.714817928071190
4.100000000000002,-2.719185831260104
4.105000000000002,-2.723591590966652
4.110000000000002,-2.728035465495193
4.115000000000002,-2.732517715904947
4.120000000000002,-2.737038606042815
4.125000000000002,-2.741598402576646
4.130000000000002,-2.746197375028977
4.135000000000002,-2.750835795811290
4.140000000000002,-2.755513940258684
4.145000000000002,-2.760232086665117
4.150000000000002,-2.764990516319090
4.155000000000002,-2.769789513539882
4.160000000000002,-2.774629365714287
4.165000000000002,-2.779510363333858
4.170000000000002,-2.784432800032740
4.175000000000002,-2.789396972625994
4.180000000000002,-2.794403181148509
4.185000000000002,-2.799451728894444
4.190000000000002,-2.804542922457300
4.195000000000002,-2.809677071770504
4.200000000000002,-2.814854490148631
4.205000000000002,-2.820075494329214
4.210000000000002,-2.825340404515174
4.215000000000002,-2.830649544417847
4.220000000000002,-2.836003241300670
4.225000000000002,-2.841401826023509
4.230000000000002,-2.846845633087620
4.235000000000002,-2.852335000681292
4.240000000000002,-2.857870270726160
4.245000000000002,-2.863451788924214
4.250000000000002,-2.869079904805499
4.255000000000002,-2.874754971776524
4.260000000000003,-2.880477347169403
4.265000000000002,-2.886247392291731
4.270000000000002,-2.892065472477211
4.275000000000002,-2.897931957137028
4.280000000000002,-2.903847219812010
4.285000000000002,-2.909811638225599
4.290000000000002,-2.915825594337561
4.295000000000002,-2.921889474398588
4.300000000000003,-2.928003669005675
4.305000000000002,-2.934168573158380
4.310000000000002,-2.940384586315900
4.315000000000002,-2.946652112455074
4.320000000000002,-2.952971560129230
4.325000000000002,-2.959343342527961
4.330000000000002,-2.965767877537843
4.335000000000002,-2.972245587804036
4.340000000000002,-2.978776900792887
4.345000000000002,-2.985362248855501
4.350000000000002,-2.992002069292271
4.355000000000002,-2.998696804418455
4.360000000000002,-3.005446901630748
4.365000000000002,-3.012252813474918
4.370000000000002,-3.019114997714480
4.375000000000002,-3.026033917400497
4.380000000000002,-3.033010040942434
4.385000000000003,-3.040043842180153
4.390000000000002,-3.047135800457067
4.395000000000002,-3.054286400694430
4.400000000000002,-3.061496133466817
4.405000000000002,-3.068765495078862
4.410000000000002,-3.076094987643111
4.415000000000002,-3.083485119159250
4.420000000000002,-3.090936403594533
4.425000000000003,-3.098449360965532
4.430000000000002,-3.106024517421212
4.435000000000002,-3.113662405327333
4.440000000000002,-3.121363563352254
4.445000000000002,-3.129128536554133
4.450000000000002,-3.136957876469497
4.455000000000002,-3.144852141203366
4.460000000000002,-3.152811895520745
4.465000000000003,-3.160837710939706
4.470000000000002,-3.168930165825989
4.475000000000002,-3.177089845489104
4.480000000000002,-3.185317342280144
4.485000000000002,-3.193613255691111
4.490000000000002,-3.201978192455989
4.495000000000002,-3.210412766653443
4.500000000000002,-3.218917599811273
4.505000000000003,-3.227493321012619
4.510000000000003,-3.236140567003964
4.515000000000002,-3.244859982304931
4.520000000000002,-3.253652219319990
4.525000000000002,-3.262517938452009
4.530000000000002,-3.271457808217794
4.535000000000002,-3.280472505365570
4.540000000000002,-3.289562714994470
4.545000000000003,-3.298729130676114
4.550000000000003,-3.307972454578221
4.555000000000002,-3.317293397590443
4.560000000000002,-3.326692679452298
4.565000000000002,-3.336171028883350
4.570000000000002,-3.345729183715716
4.575000000000002,-3.355367891028777
4.580000000000002,-3.365087907286353
4.585000000000002,-3.374889998476219
4.590000000000003,-3.384774940252139
4.595000000000002,-3.394743518078351
4.600000000000002,-3.404796527376660
4.605000000000002,-3.414934773676113
4.610000000000002,-3.425159072765370
4.615000000000002,-3.435470250847783
4.620000000000002,-3.445869144699274
4.625000000000002,-3.456356601829019
4.630000000000003,-3.466933480643076
4.635000000000003,-3.477600650610947
4.640000000000002,-3.488358992435163
4.645000000000002,-3.499209398223990
4.650000000000002,-3.510152771667239
4.655000000000002,-3.521190028215337
4.660000000000002,-3.532322095261688
4.665000000000002,-3.543549912328369
4.670000000000003,-3.554874431255301
4.675000000000003,-3.566296616392894
4.680000000000002,-3.577817444798298
4.685000000000002,-3.589437906435327
4.690000000000002,-3.601159004378097
4.695000000000002,-3.612981755018551
4.700000000000002,-3.624907188277828
4.705000000000002,-3.636936347821689
4.710000000000003,-3.649070291279989
4.715000000000003,-3.661310090470384
4.720000000000002,-3.673656831626258
4.725000000000002,-3.686111615629060
4.730000000000002,-3.698675558245094
4.735000000000002,-3.711349790366894
4.740000000000002,-3.724135458259270
4.745000000000002,-3.737033723810135
4.750000000000003,-3.750045764786253
4.755000000000003,-3.763172775093948
4.760000000000003,-3.776415965044971
4.765000000000002,-3.789776561627626
4.770000000000002,-3.803255808783236
4.775000000000002,-3.816854967688087
4.780000000000002,-3.830575317041044
4.785000000000002,-3.844418153356877
4.790000000000003,-3.858384791265509
4.795000000000003,-3.872476563817278
4.800000000000003,-3.886694822794407
4.805000000000002,-3.901040939028761
4.810000000000002,-3.915516302726113
4.815000000000002,-3.930122323797037
4.820000000000002,-3.944860432194620
4.825000000000002,-3.959732078259119
4.830000000000003,-3.974738733069755
4.835000000000003,-3.989881888803848
4.840000000000003,-4.005163059103422
4.845000000000002,-4.020583779449528
4.850000000000002,-4.036145607544396
4.855000000000002,-4.051850123701721
4.860000000000002,-4.067698931245172
4.865000000000002,-4.083693656915439
4.870000000000002,-4.099835951285963
4.875000000000003,-4.116127489187621
4.880000000000003,-4.132569970142534
4.885000000000003,-4.149165118807315
4.890000000000002,-4.165914685425936
4.895000000000002,-4.182820446292521
4.900000000000002,-4.199884204224260
4.905000000000002,-4.217107789044770
4.910000000000002,-4.234493058078177
4.915000000000003,-4.252041896654144
4.920000000000003,-4.269756218624227
4.925000000000003,-4.287637966889784
4.930000000000002,-4.305689113941813
4.935000000000002,-4.323911662413010
4.940000000000002,-4.342307645642356
4.945000000000002,-4.360879128252700
4.950000000000002,-4.379628206741491
4.955000000000003,-4.398557010085205
4.960000000000003,-4.417667700357835
4.965000000000003,-4.436962473363677
4.970000000000002,-4.456443559285028
4.975000000000002,-4.476113223345073
4.980000000000002,-4.495973766486467
4.985000000000002,-4.516027526066021
4.990000000000002,-4.536276876565979
4.995000000000003,-4.556724230322416
5.000000000000003,-4.577372038271111
5.005000000000003,-4.598222790711585
5.010000000000003,-4.619279018089715
5.015000000000002,-4.640543291799560
5.020000000000002,-4.662018225004873
5.025000000000002,-4.683706473480999
5.030000000000002,-4.705610736477728
5.035000000000003,-4.727733757603697
5.040000000000003,-4.750078325733081
5.045000000000003,-4.772647275935182
5.050000000000003,-4.795443490427706
5.055000000000002,-4.818469899554374
5.060000000000002,-4.841729482787710
5.065000000000002,-4.865225269757732
5.070000000000002,-4.888960341307414
5.075000000000003,-4.912937830575753
5.080000000000003,-4.937160924109342
5.085000000000003,-4.961632863003315
5.090000000000003,-4.986356944072725
5.095000000000002,-5.011336521055192
5.100000000000002,-5.036575005846038
5.105000000000002,-5.062075869766801
5.110000000000002,-5.087842644868369
5.115000000000003,-5.113878925269848
5.120000000000003,-5.140188368534324
5.125000000000003,-5.166774697082888
5.130000000000003,-5.193641699648077
5.135000000000003,-5.220793232768215
5.140000000000002,-5.248233222324039
5.145000000000002,-5.275965665118990
5.150000000000002,-5.303994630504840
5.155000000000002,-5.332324262054166
5.160000000000003,-5.360958779281357
5.165000000000003,-5.389902479413879
5.170000000000003,-5.419159739215651
5.175000000000003,-5.448735016864326
5.180000000000002,-5.478632853884589
5.185000000000002,-5.508857877139372
5.190000000000002,-5.539414800881272
5.195000000000002,-5.570308428866277
5.200000000000003,-5.601543656532251
5.205000000000003,-5.633125473244595
5.210000000000003,-5.665058964611580
5.215000000000003,-5.697349314872134
5.220000000000002,-5.730001809358711
5.225000000000002,-5.763021837038367
5.230000000000002,-5.796414893134926
5.235000000000002,-5.830186581835571
5.240000000000003,-5.864342619085083
5.245000000000003,-5.898888835471319
5.250000000000003,-5.933831179205596
5.255000000000003,-5.969175719201851
5.260000000000003,-6.004928648258503
5.265000000000002,-6.041096286347468
5.270000000000002,-6.077685084014465
5.275000000000002,-6.114701625895616
5.280000000000003,-6.152152634354970
5.285000000000003,-6.190044973248225
5.290000000000003,-6.228385651817984
5.295000000000003,-6.267181828726263
5.300000000000003,-6.306440816230186
5.305000000000002,-6.346170084507123
5.310000000000002,-6.386377266135967
5.315000000000002,-6.427070160741333
5.320000000000003,-6.468256739808097
5.325000000000003,-6.509945151674001
5.330000000000003,-6.552143726708295
5.335000000000003,-6.594860982685161
5.340000000000003,-6.638105630360712
5.345000000000002,-6.681886579263298
5.350000000000002,-6.726212943706956
5.355000000000002,-6.771094049038736
5.360000000000003,-6.816539438131055
5.365000000000003,-6.862558878130876
5.370000000000003,-6.909162367478190
5.375000000000003,-6.956360143207124
5.380000000000003,-7.004162688543545
5.385000000000003,-7.052580740814044
5.390000000000002,-7.101625299681933
5.395000000000002,-7.151307635726875
5.400000000000002,-7.201639299385765
5.405000000000003,-7.252632130273533
5.410000000000003,-7.304298266903692
5.415000000000003,-7.356650156829716
5.420000000000003,-7.409700567229387
5.425000000000003,-7.463462595956160
5.430000000000002,-7.517949683082562
5.435000000000002,-7.573175622962590
5.440000000000002,-7.629154576841669
5.445000000000003,-7.685901086044582
5.450000000000003,-7.743430085773897
5.455000000000003,-7.801756919553475
5.460000000000003,-7.860897354353770
5.465000000000003,-7.920867596438727
5.470000000000002,-7.981684307975936
5.475000000000002,-8.043364624455272
5.480000000000002,-8.105926172964045
5.485000000000003,-8.169387091370131
5.490000000000003,-8.233766048468334
5.495000000000003,-8.299082265148799
5.500000000000003,-8.365355536651062
5.505000000000003,-8.432606255971693
5.510000000000003,-8.500855438498293
5.515000000000002,-8.570124747948613
5.520000000000002,-8.640436523698943
5.525000000000003,-8.711813809592606
5.530000000000003,-8.784280384326237
5.535000000000003,-8.857860793519533
5.540000000000003,-8.932580383581874
5.545000000000003,-9.008465337498656
5.550000000000003,-9.085542712670007
5.555000000000002,-9.163840480945412
5.560000000000002,-9.243387571009290
5.565000000000003,-9.324213913286041
5.570000000000003,-9.406350487546728
5.575000000000003,-9.489829373415605
5.580000000000003,-9.574683803991450
5.585000000000003,-9.660948222817815
5.590000000000003,-9.748658344456757
5.595000000000002,-9.837851218943779
5.600000000000002,-9.928565300426538
5.605000000000003,-10.020840520318332
5.610000000000003,-10.114718365327523
5.615000000000003,-10.210241960758990
5.620000000000003,-10.307456159521145
5.625000000000003,-10.406407637314254
5.630000000000003,-10.507144994522797
5.635000000000003,-10.609718865386977
5.640000000000002,-10.714182035086289
5.645000000000003,-10.820589565433725
5.650000000000003,-10.928998929951581
5.655000000000003,-11.039470159182002
5.660000000000003,-11.152065997176569
5.665000000000003,-11.266852070212925
5.670000000000003,-11.383897068902217
5.675000000000003,-11.503272944982598
5.680000000000002,-11.625055124241797
5.685000000000002,-11.749322737180959
5.690000000000003,-11.876158869220697
5.695000000000003,-12.005650832469733
5.700000000000003,-12.137890461320691
5.705000000000003,-12.272974434423370
5.710000000000003,-12.411004625905742
5.715000000000003,-12.552088489086357
5.720000000000002,-12.696339476347067
5.725000000000002,-12.843877499327185
5.730000000000003,-12.994829434168475
5.735000000000003,-13.149329677200079
5.740000000000003,-13.307520757216610
5.745000000000003,-13.469554011396987
5.750000000000003,-13.635590332952814
5.755000000000003,-13.805800999819915
5.760000000000003,-13.980368595143583
5.765000000000002,-14.159488032006859
5.770000000000003,-14.343367696860819
5.775000000000003,-14.532230728505636
5.780000000000003,-14.726316452319773
5.785000000000003,-14.925881992849675
5.790000000000003,-15.131204091973661
5.795000000000003,-15.342581164811095
5.800000000000003,-15.560335631558269
5.805000000000002,-15.784816570756249
5.810000000000003,-16.016402748466529
5.815000000000003,-16.255506088870387
5.820000000000003,-16.502575665468438
5.825000000000003,-16.758102309060899
5.830000000000003,-17.022623949969827
5.835000000000003,-17.296731838780506
5.840000000000003,-17.581077823874107
5.845000000000002,-17.876382907436966
5.850000000000003,-18.183447357471454
5.855000000000003,-18.503162725709856
5.860000000000003,-18.836526215928384
5.865000000000003,-19.184657971850626
5.870000000000003,-19.548822019713352
5.875000000000003,-19.930451823392602
5.880000000000003,-20.331181712356102
5.885000000000003,-20.752885857465895
5.890000000000003,-21.197727045004171
5.895000000000003,-21.668218306876046
5.900000000000003,-22.167301612319491
5.905000000000003,-22.698449476762111
5.910000000000003,-23.265797745933696
5.915000000000003,-23.874321349695830
5.920000000000003,-24.530070070561731
5.925000000000003,-25.240489193824228
5.930000000000002,-26.014861465784847
5.935000000000003,-26.864923289521940
5.940000000000003,-27.805729225022784
5.945000000000003,-28.856856250318028
5.950000000000003,-30.044010464002866
5.955000000000003,-31.400843741884579
5.960000000000003,-32.969556699250525
5.965000000000003,-34.793476436403843
5.970000000000002,-36.872042888522429
5.975000000000003,-38.970795804537154
5.980000000000003,-40.186085109337377
5.985000000000003,-39.465343672284263
5.990000000000003,-37.470672201180065
5.995000000000003,-35.316585955617683
6.000000000000003,-33.387818844701343
6.005000000000003,-31.722880480666838
6.010000000000003,-30.283402187459199
6.015000000000003,-29.025318161632924
6.020000000000003,-27.912363789075975
6.025000000000003,-26.916661668572658
6.030000000000003,-26.017005218144782
6.035000000000003,-25.197144963834564
6.040000000000003,-24.444467178582187
6.045000000000003,-23.749038417506966
6.050000000000003,-23.102924395872279
6.055000000000003,-22.499702746400249
6.060000000000003,-21.934110821269591
6.065000000000003,-21.401787773350048
6.070000000000003,-20.899083069457131
6.075000000000003,-20.422912385454769
6.080000000000003,-19.970647742626845
6.085000000000003,-19.540032718078933
6.090000000000003,-19.129116253452949
6.095000000000003,-18.736200428762594
6.100000000000003,-18.359798844535963
6.105000000000003,-17.998603150565913
6.110000000000003,-17.651455895009139
6.115000000000003,-17.317328324069997
6.120000000000003,-16.995302094221664
6.125000000000003,-16.684554102590130
6.130000000000003,-16.384343822004684
6.135000000000003,-16.094002662795482
6.140000000000003,-15.812924985998290
6.145000000000003,-15.540560470917301
6.150000000000003,-15.276407600253263
6.155000000000003,-15.020008072747709
6.160000000000003,-14.770941989818470
6.165000000000003,-14.528823691413034
6.170000000000003,-14.293298139083872
6.175000000000003,-14.064037762450180
6.180000000000003,-13.840739699780196
6.185000000000003,-13.623123375183294
6.190000000000003,-13.410928364432090
6.195000000000003,-13.203912509213200
6.200000000000003,-13.001850245972163
6.205000000000003,-12.804531120766020
6.210000000000003,-12.611758465873383
6.215000000000003,-12.423348217515080
6.220000000000003,-12.239127857044489
6.225000000000003,-12.058935460482422
6.230000000000003,-11.882618843386069
6.235000000000003,-11.710034789827315
6.240000000000003,-11.541048355764044
6.245000000000003,-11.375532238373061
6.250000000000003,-11.213366204004537
6.255000000000003,-11.054436568353758
6.260000000000003,-10.898635723245967
6.265000000000003,-10.745861705118848
6.270000000000003,-10.596017800881963
6.275000000000003,-10.449012187344140
6.280000000000003,-10.304757600845948
6.285000000000003,-10.163171034119985
6.290000000000003,-10.024173457739057
6.295000000000003,-9.887689563805212
6.300000000000003,-9.753647529790575
6.305000000000003,-9.621978800665859
6.310000000000003,-9.492617887650619
6.315000000000003,-9.365502182093007
6.320000000000003,-9.240571783142377
6.325000000000003,-9.117769338011746
6.330000000000003,-8.997039893749371
6.335000000000003,-8.878330759544603
6.340000000000003,-8.761591378688545
6.345000000000003,-8.646773209393817
6.350000000000003,-8.533829613754179
6.355000000000003,-8.422715754191174
6.360000000000003,-8.313388496795481
6.365000000000003,-8.205806321024715
6.370000000000003,-8.099929235267293
6.375000000000003,-7.995718697826517
6.380000000000003,-7.893137542916461
6.385000000000003,-7.792149911298476
6.390000000000003,-7.692721185217363
6.395000000000003,-7.594817927325703
6.400000000000003,-7.498407823310546
6.405000000000003,-7.403459627960727
6.410000000000003,-7.309943114433546
6.415000000000003,-7.217829026499823
6.420000000000004,-7.127089033563071
6.425000000000003,-7.037695688265427
6.430000000000003,-6.949622386506953
6.435000000000003,-6.862843329718407
6.440000000000003,-6.777333489239940
6.445000000000003,-6.693068572668775
6.450000000000003,-6.610024992049709
6.455000000000003,-6.528179833791310
6.460000000000004,-6.447510830198760
6.465000000000003,-6.367996332523012
6.470000000000003,-6.289615285432381
6.475000000000003,-6.212347202819595
6.480000000000003,-6.136172144863243
6.485000000000003,-6.061070696268496
6.490000000000003,-5.987023945616810
6.495000000000003,-5.914013465758939
6.500000000000003,-5.842021295190437
6.505000000000003,-5.771029920352720
6.510000000000003,-5.701022258806164
6.515000000000003,-5.631981643225621
6.520000000000003,-5.563891806171795
6.525000000000003,-5.496736865594862
6.530000000000003,-5.430501311029440
6.535000000000003,-5.365169990442769
6.540000000000003,-5.300728097700231
6.545000000000004,-5.237161160614398
6.550000000000003,-5.174455029546095
6.555000000000003,-5.112595866527956
6.560000000000003,-5.051570134882323
6.565000000000003,-4.991364589307344
6.570000000000003,-4.931966266406786
6.575000000000003,-4.873362475640008
6.580000000000003,-4.815540790670583
6.585000000000004,-4.758489041092654
6.590000000000003,-4.702195304515864
6.595000000000003,-4.646647898990329
6.600000000000003,-4.591835375754647
6.605000000000003,-4.537746512290330
6.610000000000003,-4.484370305667596
6.615000000000003,-4.431695966167680
6.620000000000003,-4.379712911168231
6.625000000000004,-4.328410759278588
6.630000000000003,-4.277779324712704
6.635000000000003,-4.227808611888266
6.640000000000003,-4.178488810240877
6.645000000000003,-4.129810289242909
6.650000000000003,-4.081763593617249
6.655000000000003,-4.034339438736630
6.660000000000003,-3.987528706199619
6.665000000000004,-3.941322439575021
6.670000000000004,-3.895711840306657
6.675000000000003,-3.850688263771128
