F [GHz],dB(S11)
4.000000000000002,-0.123628601677822
4.005000000000002,-0.121288092601897
4.010000000000002,-0.118961872092436
4.015000000000002,-0.116650102122396
4.020000000000002,-0.114352947757524
4.025000000000002,-0.112070577207855
4.030000000000002,-0.109803161880188
4.035000000000002,-0.107550876431476
4.040000000000002,-0.105313898823200
4.045000000000002,-0.103092410376726
4.050000000000002,-0.100886595829642
4.055000000000002,-0.098696643393150
4.060000000000002,-0.096522744810463
4.065000000000002,-0.094365095416274
4.070000000000002,-0.092223894197319
4.075000000000002,-0.090099343854017
4.080000000000002,-0.087991650863223
4.085000000000002,-0.085901025542160
4.090000000000002,-0.083827682113469
4.095000000000002,-0.081771838771458
4.100000000000002,-0.079733717749579
4.105000000000002,-0.077713545389090
4.110000000000002,-0.075711552209008
4.115000000000002,-0.073727972977305
4.120000000000002,-0.071763046783424
4.125000000000002,-0.069817017112113
4.130000000000002,-0.067890131918601
4.135000000000002,-0.065982643705128
4.140000000000002,-0.064094809598936
4.145000000000002,-0.062226891431596
4.150000000000002,-0.060379155819862
4.155000000000002,-0.058551874247953
4.160000000000002,-0.056745323151369
4.165000000000002,-0.054959784002225
4.170000000000002,-0.053195543396154
4.175000000000002,-0.051452893140795
4.180000000000002,-0.049732130345904
4.185000000000002,-0.048033557515123
4.190000000000002,-0.046357482639411
4.195000000000002,-0.044704219292213
4.200000000000002,-0.043074086726345
4.205000000000002,-0.041467409972678
4.210000000000002,-0.039884519940621
4.215000000000002,-0.038325753520446
4.220000000000002,-0.036791453687490
4.225000000000002,-0.035281969608264
4.230000000000002,-0.033797656748528
4.235000000000002,-0.032338876983313
4.240000000000002,-0.030905998708999
4.245000000000002,-0.029499396957417
4.250000000000002,-0.028119453512059
4.255000000000002,-0.026766557026428
4.260000000000003,-0.025441103144530
4.265000000000002,-0.024143494623603
4.270000000000002,-0.022874141459086
4.275000000000002,-0.021633461011873
4.280000000000002,-0.020421878137903
4.285000000000002,-0.019239825320125
4.290000000000002,-0.018087742802890
4.295000000000002,-0.016966078728782
4.300000000000003,-0.015875289277964
4.305000000000002,-0.014815838810090
4.310000000000002,-0.013788200008780
4.315000000000002,-0.012792854028767
4.320000000000002,-0.011830290645714
4.325000000000002,-0.010901008408776
4.330000000000002,-0.010005514795944
4.335000000000002,-0.009144326372234
4.340000000000002,-0.008317968950732
4.345000000000002,-0.007526977756600
4.350000000000002,-0.006771897594082
4.355000000000002,-0.006053283016489
4.360000000000002,-0.005371698499346
4.365000000000002,-0.004727718616641
4.370000000000002,-0.004121928220276
4.375000000000002,-0.003554922622794
4.380000000000002,-0.003027307783401
4.385000000000003,-0.002539700497352
4.390000000000002,-0.002092728588769
4.395000000000002,-0.001687031106941
4.400000000000002,-0.001323258526160
4.405000000000002,-0.001002072949164
4.410000000000002,-0.000724148314236
4.415000000000002,-0.000490170606031
4.420000000000002,-0.000300838070168
4.425000000000003,-0.000156861431708
4.430000000000002,-0.000058964117488
4.435000000000002,-0.000007882482468
4.440000000000002,-0.000004366040108
4.445000000000002,-0.000049177696827
4.450000000000002,-0.000143093990656
4.455000000000002,-0.000286905334105
4.460000000000002,-0.000481416261348
4.465000000000003,-0.000727445679767
4.470000000000002,-0.001025827125930
4.475000000000002,-0.001377409026074
4.480000000000002,-0.001783054961191
4.485000000000002,-0.002243643936721
4.490000000000002,-0.002760070656965
4.495000000000002,-0.003333245804318
4.500000000000002,-0.003964096323319
4.505000000000003,-0.004653565709643
4.510000000000003,-0.005402614304111
4.515000000000002,-0.006212219591746
4.520000000000002,-0.007083376505978
4.525000000000002,-0.008017097738096
4.530000000000002,-0.009014414051953
4.535000000000002,-0.010076374604042
4.540000000000002,-0.011204047269042
4.545000000000003,-0.012398518970839
4.550000000000003,-0.013660896019129
4.555000000000002,-0.014992304451717
4.560000000000002,-0.016393890382506
4.565000000000002,-0.017866820355302
4.570000000000002,-0.019412281703504
4.575000000000002,-0.021031482915743
4.580000000000002,-0.022725654007517
4.585000000000002,-0.024496046898955
4.590000000000003,-0.026343935798725
4.595000000000002,-0.028270617594160
4.600000000000002,-0.030277412247729
4.605000000000002,-0.032365663199851
4.610000000000002,-0.034536737778159
4.615000000000002,-0.036792027613262
4.620000000000002,-0.039132949061118
4.625000000000002,-0.041560943631991
4.630000000000003,-0.044077478426172
4.635000000000003,-0.046684046576407
4.640000000000002,-0.049382167697212
4.645000000000002,-0.052173388341018
4.650000000000002,-0.055059282461308
4.655000000000002,-0.058041451882709
4.660000000000002,-0.061121526778173
4.665000000000002,-0.064301166153242
4.670000000000003,-0.067582058337459
4.675000000000003,-0.070965921483015
4.680000000000002,-0.074454504070585
4.685000000000002,-0.078049585422486
4.690000000000002,-0.081752976223152
4.695000000000002,-0.085566519046958
4.700000000000002,-0.089492088893417
4.705000000000002,-0.093531593729830
4.710000000000003,-0.097686975041354
4.715000000000003,-0.101960208388518
4.720000000000002,-0.106353303972248
4.725000000000002,-0.110868307206357
4.730000000000002,-0.115507299297542
4.735000000000002,-0.120272397832882
4.740000000000002,-0.125165757374828
4.745000000000002,-0.130189570063683
4.750000000000003,-0.135346066227585
4.755000000000003,-0.140637514999900
4.760000000000003,-0.146066224944110
4.765000000000002,-0.151634544686070
4.770000000000002,-0.157344863553655
4.775000000000002,-0.163199612223715
4.780000000000002,-0.169201263376339
4.785000000000002,-0.175352332356311
4.790000000000003,-0.181655377841762
4.795000000000003,-0.188113002519876
4.800000000000003,-0.194727853769631
4.805000000000002,-0.201502624351450
4.810000000000002,-0.208440053103692
4.815000000000002,-0.215542925645879
4.820000000000002,-0.222814075088511
4.825000000000002,-0.230256382749402
4.830000000000003,-0.237872778876383
4.835000000000003,-0.245666243376219
4.840000000000003,-0.253639806549612
4.845000000000002,-0.261796549832142
4.850000000000002,-0.270139606540947
4.855000000000002,-0.278672162626987
4.860000000000002,-0.287397457432713
4.865000000000002,-0.296318784454910
4.870000000000002,-0.305439492112542
4.875000000000003,-0.314762984519370
4.880000000000003,-0.324292722261104
4.885000000000003,-0.334032223176840
4.890000000000002,-0.343985063144586
4.895000000000002,-0.354154876870559
4.900000000000002,-0.364545358681981
4.905000000000002,-0.375160263323160
4.910000000000002,-0.386003406754479
4.915000000000003,-0.397078666954047
4.920000000000003,-0.408389984721685
4.925000000000003,-0.419941364484906
4.930000000000002,-0.431736875106589
4.935000000000002,-0.443780650693995
4.940000000000002,-0.456076891408729
4.945000000000002,-0.468629864277401
4.950000000000002,-0.481443904002471
4.955000000000003,-0.494523413773031
4.960000000000003,-0.507872866075079
4.965000000000003,-0.521496803500917
4.970000000000002,-0.535399839557243
4.975000000000002,-0.549586659471631
4.980000000000002,-0.564062020996852
4.985000000000002,-0.578830755212819
4.990000000000002,-0.593897767325558
4.995000000000003,-0.609268037462939
5.000000000000003,-0.624946621466707
5.005000000000003,-0.640938651680411
5.010000000000003,-0.657249337732824
5.015000000000002,-0.673883967316501
5.020000000000002,-0.690847906961060
5.025000000000002,-0.708146602800775
5.030000000000002,-0.725785581336213
5.035000000000003,-0.743770450189463
5.040000000000003,-0.762106898852655
5.045000000000003,-0.780800699429487
5.050000000000003,-0.799857707369442
5.055000000000002,-0.819283862194346
5.060000000000002,-0.839085188217173
5.065000000000002,-0.859267795252743
5.070000000000002,-0.879837879320200
5.075000000000003,-0.900801723337079
5.080000000000003,-0.922165697804937
5.085000000000003,-0.943936261486348
5.090000000000003,-0.966119962073396
5.095000000000002,-0.988723436847590
5.100000000000002,-1.011753413331361
5.105000000000002,-1.035216709931252
5.110000000000002,-1.059120236573081
5.115000000000003,-1.083470995329271
5.120000000000003,-1.108276081038843
5.125000000000003,-1.133542681920446
5.130000000000003,-1.159278080178924
5.135000000000003,-1.185489652606173
5.140000000000002,-1.212184871176949
5.145000000000002,-1.239371303640408
5.150000000000002,-1.267056614108505
5.155000000000002,-1.295248563642140
5.160000000000003,-1.323955010836355
5.165000000000003,-1.353183912405925
5.170000000000003,-1.382943323772777
5.175000000000003,-1.413241399656860
5.180000000000002,-1.444086394672352
5.185000000000002,-1.475486663931001
5.190000000000002,-1.507450663654902
5.195000000000002,-1.539986951800890
5.200000000000003,-1.573104188699152
5.205000000000003,-1.606811137708691
5.210000000000003,-1.641116665892673
5.215000000000003,-1.676029744716701
5.220000000000002,-1.711559450773474
5.225000000000002,-1.747714966537383
5.230000000000002,-1.784505581153120
5.235000000000002,-1.821940691262098
5.240000000000003,-1.860029801871461
5.245000000000003,-1.898782527270311
5.250000000000003,-1.938208591997903
5.255000000000003,-1.978317831869591
5.260000000000003,-2.019120195065842
5.265000000000002,-2.060625743290408
5.270000000000002,-2.102844653004109
5.275000000000002,-2.145787216740849
5.280000000000003,-2.189463844512960
5.285000000000003,-2.233885065313505
5.290000000000003,-2.279061528723343
5.295000000000003,-2.325004006631313
5.300000000000003,-2.371723395076451
5.305000000000002,-2.419230716221408
5.310000000000002,-2.467537120466824
5.315000000000002,-2.516653888717023
5.320000000000003,-2.566592434807682
5.325000000000003,-2.617364308106888
5.330000000000003,-2.668981196301533
5.335000000000003,-2.721454928381494
5.340000000000003,-2.774797477834683
5.345000000000002,-2.829020966066850
5.350000000000002,-2.884137666060669
5.355000000000002,-2.940160006288963
5.360000000000003,-2.997100574898429
5.365000000000003,-3.054972124180254
5.370000000000003,-3.113787575345266
5.375000000000003,-3.173560023622025
5.380000000000003,-3.234302743697247
5.385000000000003,-3.296029195518575
5.390000000000002,-3.358753030481350
5.395000000000002,-3.422488098021479
5.400000000000002,-3.487248452637954
5.405000000000003,-3.553048361369858
5.410000000000003,-3.619902311753699
5.415000000000003,-3.687825020288511
5.420000000000003,-3.756831441437420
5.425000000000003,-3.826936777196234
5.430000000000002,-3.898156487260745
5.435000000000002,-3.970506299826823
5.440000000000002,-4.044002223058670
5.445000000000003,-4.118660557263136
5.450000000000003,-4.194497907809811
5.455000000000003,-4.271531198839117
5.460000000000003,-4.349777687803127
5.465000000000003,-4.429254980886481
5.470000000000002,-4.509981049357791
5.475000000000002,-4.591974246904991
5.480000000000002,-4.675253328011499
5.485000000000003,-4.759837467433969
5.490000000000003,-4.845746280845920
5.495000000000003,-4.932999846716560
5.500000000000003,-5.021618729498222
5.505000000000003,-5.111624004201118
5.510000000000003,-5.203037282440080
5.515000000000002,-5.295880740043319
5.520000000000002,-5.390177146320492
5.525000000000003,-5.485949895094032
5.530000000000003,-5.583223037606145
5.535000000000003,-5.682021317421700
5.540000000000003,-5.782370207457504
5.545000000000003,-5.884295949278008
5.550000000000003,-5.987825594809108
5.555000000000002,-6.092987050634132
5.560000000000002,-6.199809125049415
5.565000000000003,-6.308321578071804
5.570000000000003,-6.418555174607159
5.575000000000003,-6.530541741006595
5.580000000000003,-6.644314225256989
5.585000000000003,-6.759906761074937
5.590000000000003,-6.877354736196791
5.595000000000002,-6.996694865184332
5.600000000000002,-7.117965267096023
5.605000000000003,-7.241205548405805
5.610000000000003,-7.366456891588158
5.615000000000003,-7.493762149829059
5.620000000000003,-7.623165948367252
5.625000000000003,-7.754714793020483
5.630000000000003,-7.888457186507499
5.635000000000003,-8.024443753239735
5.640000000000002,-8.162727373325849
5.645000000000003,-8.303363326611436
5.650000000000003,-8.446409447664617
5.655000000000003,-8.591926292716781
5.660000000000003,-8.739977319679641
5.665000000000003,-8.890629082486296
5.670000000000003,-9.043951441145302
5.675000000000003,-9.200017789058704
5.680000000000002,-9.358905299337947
5.685000000000002,-9.520695192058476
5.690000000000003,-9.685473024631635
5.695000000000003,-9.853329007742470
5.700000000000003,-10.024358349609624
5.705000000000003,-10.198661631680572
5.710000000000003,-10.376345219280203
5.715000000000003,-10.557521711200533
5.720000000000002,-10.742310432761766
5.725000000000002,-10.930837977501152
5.730000000000003,-11.123238803374132
5.735000000000003,-11.319655890201153
5.740000000000003,-11.520241466081650
5.745000000000003,-11.725157811656901
5.750000000000003,-11.934578152464992
5.755000000000003,-12.148687651235798
5.760000000000003,-12.367684513871593
5.765000000000002,-12.591781225112582
5.770000000000003,-12.821205932568772
5.775000000000003,-13.056204001007030
5.780000000000003,-13.297039762636420
5.785000000000003,-13.543998493774996
5.790000000000003,-13.797388653903957
5.795000000000003,-14.057544429954103
5.800000000000003,-14.324828637024593
5.805000000000002,-14.599636036999120
5.810000000000003,-14.882397149197860
5.815000000000003,-15.173582642939486
5.820000000000003,-15.473708421534097
5.825000000000003,-15.783341531916253
5.830000000000003,-16.103107065336900
5.835000000000003,-16.433696254270064
5.840000000000003,-16.775876021626306
5.845000000000002,-17.130500304162496
5.850000000000003,-17.498523557638634
5.855000000000003,-17.881016963727941
5.860000000000003,-18.279188007617783
5.865000000000003,-18.694404294317088
5.870000000000003,-19.128222740390974
5.875000000000003,-19.582425644253075
5.880000000000003,-20.059065643138211
5.885000000000003,-20.560522268585963
5.890000000000003,-21.089573803994256
5.895000000000003,-21.649489561255368
5.900000000000003,-22.244149729812342
5.905000000000003,-22.878202913015556
5.910000000000003,-23.557275802048032
5.915000000000003,-24.288255787377498
5.920000000000003,-25.079676493401717
5.925000000000003,-25.942248961935341
5.930000000000002,-26.889596774828810
5.935000000000003,-27.939264400799143
5.940000000000003,-29.114040979638741
5.945000000000003,-30.443443547299868
5.950000000000003,-31.964313136318165
5.955000000000003,-33.715810664438813
5.960000000000003,-35.709407962706543
5.965000000000003,-37.803424441115162
5.970000000000002,-39.361437689466605
5.975000000000003,-39.294232683754245
5.980000000000003,-37.688130175790384
5.985000000000003,-35.641349288383751
5.990000000000003,-33.723639204177161
5.995000000000003,-32.050301815536393
6.000000000000003,-30.604062849687185
6.005000000000003,-29.345343325667038
6.010000000000003,-28.237957613146797
6.015000000000003,-27.253102954191327
6.020000000000003,-26.368567160888809
6.025000000000003,-25.567239327850267
6.030000000000003,-24.835816024763322
6.035000000000003,-24.163822837356939
6.040000000000003,-23.542902380911283
6.045000000000003,-22.966299818400966
6.050000000000003,-22.428489145115989
6.055000000000003,-21.924898932440790
6.060000000000003,-21.451708601623803
6.065000000000003,-21.005695165844219
6.070000000000003,-20.584116495550756
6.075000000000003,-20.184621336802500
6.080000000000003,-19.805179165422803
6.085000000000003,-19.444024923173370
6.090000000000003,-19.099615046374524
6.095000000000003,-18.770592155640003
6.100000000000003,-18.455756456094722
6.105000000000003,-18.154042386469584
6.110000000000003,-17.864499410667012
6.115000000000003,-17.586276106146425
6.120000000000003,-17.318606896854579
6.125000000000003,-17.060800923227543
6.130000000000003,-16.812232651225290
6.135000000000003,-16.572333905789982
6.140000000000003,-16.340587078251460
6.145000000000003,-16.116519306893984
6.150000000000003,-15.899697468684089
6.155000000000003,-15.689723850648562
6.160000000000003,-15.486232393521076
6.165000000000003,-15.288885419494349
6.170000000000003,-15.097370771311097
6.175000000000003,-14.911399302338566
6.180000000000003,-14.730702667326618
6.185000000000003,-14.555031371739744
6.190000000000003,-14.384153044259460
6.195000000000003,-14.217850902568996
6.200000000000003,-14.055922387089341
6.205000000000003,-13.898177941116403
6.210000000000003,-13.744439918963009
6.215000000000003,-13.594541606343222
6.220000000000003,-13.448326339452759
6.225000000000003,-13.305646711065080
6.230000000000003,-13.166363853541281
6.235000000000003,-13.030346789991968
6.240000000000003,-12.897471845970799
6.245000000000003,-12.767622115052841
6.250000000000003,-12.640686972486714
6.255000000000003,-12.516561631826216
6.260000000000003,-12.395146740065377
6.265000000000003,-12.276348007334798
6.270000000000003,-12.160075867679446
6.275000000000003,-12.046245167839826
6.280000000000003,-11.934774881307689
6.285000000000003,-11.825587845232663
6.290000000000003,-11.718610518022677
6.295000000000003,-11.613772755714578
6.300000000000003,-11.511007605397170
6.305000000000003,-11.410251114148604
6.310000000000003,-11.311442152109938
6.315000000000003,-11.214522248457467
6.320000000000003,-11.119435439160059
6.325000000000003,-11.026128125519660
6.330000000000003,-10.934548942589476
6.335000000000003,-10.844648636653053
6.340000000000003,-10.756379951024586
6.345000000000003,-10.669697519500405
6.350000000000003,-10.584557766853418
6.355000000000003,-10.500918815818729
6.360000000000003,-10.418740400067264
6.365000000000003,-10.337983782710289
6.370000000000003,-10.258611679917113
6.375000000000003,-10.180588189265226
6.380000000000003,-10.103878722474052
6.385000000000003,-10.028449942204102
6.390000000000003,-9.954269702628992
6.395000000000003,-9.881306993512789
6.400000000000003,-9.809531887546664
6.405000000000003,-9.738915490718840
6.410000000000003,-9.669429895509833
6.415000000000003,-9.601048136721767
6.420000000000004,-9.533744149765116
6.425000000000003,-9.467492731239817
6.430000000000003,-9.402269501660989
6.435000000000003,-9.338050870189669
6.440000000000003,-9.274814001240276
6.445000000000003,-9.212536782845808
6.450000000000003,-9.151197796670388
6.455000000000003,-9.090776289566694
6.460000000000004,-9.031252146583640
6.465000000000003,-8.972605865335897
6.470000000000003,-8.914818531653188
6.475000000000003,-8.857871796433289
6.480000000000003,-8.801747853627548
6.485000000000003,-8.746429419292801
6.490000000000003,-8.691899711648027
6.495000000000003,-8.638142432078126
6.500000000000003,-8.585141747031116
6.505000000000003,-8.532882270758547
6.510000000000003,-8.481349048852149
6.515000000000003,-8.430527542532856
6.520000000000003,-8.380403613651136
6.525000000000003,-8.330963510360004
6.530000000000003,-8.282193853424754
6.535000000000003,-8.234081623135539
6.540000000000003,-8.186614146791062
6.545000000000004,-8.139779086723467
6.550000000000003,-8.093564428836613
6.555000000000003,-8.047958471631288
6.560000000000003,-8.002949815692546
6.565000000000003,-7.958527353616027
6.570000000000003,-7.914680260351281
6.575000000000003,-7.871397983941299
6.580000000000003,-7.828670236639059
6.585000000000004,-7.786486986382398
6.590000000000003,-7.744838448610185
6.595000000000003,-7.703715078403298
6.600000000000003,-7.663107562934963
6.605000000000003,-7.623006814215908
6.610000000000003,-7.583403962120661
6.615000000000003,-7.544290347681653
6.620000000000003,-7.505657516639104
6.625000000000004,-7.467497213234994
6.630000000000003,-7.429801374239714
6.635000000000003,-7.392562123201497
6.640000000000003,-7.355771764908151
6.645000000000003,-7.319422780052136
6.650000000000003,-7.283507820089684
6.655000000000003,-7.248019702285888
6.660000000000003,-7.212951404937321
6.665000000000004,-7.178296062764864
6.670000000000004,-7.144046962469346
6.675000000000003,-7.110197538443149
